radius,t=2.0,t=11.3,t=80.0,gaussian_t=2.0,gaussian_t=11.3,gaussian_t=80.0
0.0,0.0,0.0,0.0,0.0,0.0,0.0
0.017155110793423873,0.0002514742942443795,0.00011909686729030594,6.5463490715240645e-06,0.0002460513513911987,8.301726854144683e-05,5.740317328004996e-06
0.034310221586847746,0.001005429045440117,0.00047622383183524436,2.6184213411117434e-05,0.0009837572368433575,0.00033199578479381416,2.2960415539359616e-05
0.05146533238027162,0.0022604609512264103,0.0010708902941830836,5.8910044693249166e-05,0.0022117741704816094,0.0007467157615139436,5.165773347481131e-05
0.06862044317369549,0.004014234811997364,0.0019022796295428816,0.00010471793003994054,0.003927866407255731,0.001326811156094726,9.182800306466417e-05
0.08577555396711936,0.0062634889762906544,0.002969250746457625,0.0001635995935172324,0.006128911029945935,0.002071770074373843,0.0001434652501222381
0.10293066476054324,0.009004042942162723,0.004270340263416099,0.0002355443982294556,0.008810905050794396,0.0029809353351896877,0.00020656179545445452
0.12008577555396711,0.012230807092474842,0.005803765297894001,0.00032053934901052106,0.011968974507668529,0.004053505194909677,0.0002811082562892915
0.13724088634739098,0.015937794535839923,0.00756742686077053,0.000418569095711224,0.01559738552903872,0.005288534230937032,0.00036709354801977916
0.15439599714081487,0.02011813501890435,0.00955891384754492,0.0005296159370813313,0.01968955733651729,0.006684934382984532,0.0004645048862641303
0.17155110793423872,0.024764090869683415,0.01177550761628241,0.0006536598252450072,0.024238077148276162,0.008241476150688282,0.000573327789241531
0.1887062187276626,0.029867074925854255,0.014214187140756104,0.0007906783707678994,0.029234716941355994,0.009956789945921328,0.0006935460804630423
0.2058613295210865,0.035417670396255756,0.01687163472582456,0.0009406468483140019,0.03467045202571733,0.011829367597956506,0.000825141891736988
0.22301644031451034,0.04140565259837095,0.019744242270698736,0.0011035382028901784,0.0405354813778821,0.013857564009420537,0.0009680956664881373
0.24017155110793423,0.04782001250929256,0.022828118064411138,0.001279323056676034,0.046819249677188,0.016039598960777342,0.0011223861633899135
0.2573266619013581,0.05464898206261318,0.02611909409650783,0.0014679697164365684,0.05351047098304442,0.018373559060878213,0.0012879904603087875
0.27448177269478197,0.06188006111885759,0.02961273386474568,0.0016694441815148873,0.060597153987153214,0.020857399840920384,0.0014648839585599473
0.2916368834882058,0.06950004603249921,0.03330434066039441,0.0018837101524019756,0.06806662877045318,0.02348894798896347,0.0016530403874732609
0.30879199428162973,0.07749505973429233,0.03718896631062171,0.0021107290398803685,0.07590557499057836,0.02626590372196627,0.0018524318092684752
0.3259471050750536,0.08585058324362033,0.041261420356381195,0.002350459974738324,0.08410005142190001,0.029185843292123946,0.002063028624238523
0.34310221586847744,0.09455148852182038,0.04551627964323139,0.0026028598180509207,0.09263552676676022,0.03224622162410893,0.0022847995762397513
0.36025732666190136,0.10358207257400759,0.04994789830159111,0.002867883172024252,0.10149691165331477,0.03544437507964728,0.0025177117584877953
0.3774124374553252,0.11292609270379898,0.05455041809208726,0.0031454823913987413,0.11066859173248982,0.03877752434569664,0.0027617306196577574
0.39456754824874907,0.12256680282253725,0.05931777909087361,0.0034356075954073625,0.12013446178393555,0.042242777442332624,0.003016819970287298
0.411722659042173,0.13248699071214484,0.06424373068910026,0.0037382066802843935,0.12987796073852928,0.045837132846297056,0.003282941989481149
0.42887776983559683,0.1426690161386064,0.06932184288009074,0.004053225332320055,0.13988210752295538,0.04955748272601482,0.003560057231915505
0.4460328806290207,0.15309484971129014,0.07454551780724195,0.0043806070414563174,0.15012953763016865,0.05340061628374661,0.0038481246351406927
0.46318799142244454,0.16374611238187253,0.07990800154519917,0.004720293115418856,0.16060254031813792,0.05736322320041141,0.004147101527180416
0.48034310221586846,0.17460411547554222,0.0854023960864788,0.005072222694380006,0.17128309633816977,0.06144189717848744,0.004456943634425839
0.4974982130092923,0.18564990114641167,0.0910216715054123,0.00543633276614739,0.18215291609333026,0.0656331395782815,0.004777605089822689
0.5146533238027162,0.19686428314867727,0.0967586782710695,0.0058125581818726565,0.19319347812701662,0.06993336314274629,0.005109038441349499
0.53180843459614,0.20822788781502144,0.10260615968068457,0.006200831672274683,0.2043860678415749,0.07433889580592197,0.0054511946607850225
0.5489635453895639,0.21972119513405863,0.10855676438505797,0.006601083864371341,0.21571181634702308,0.07884598457998312,0.005804023152762843
0.5661186561829878,0.2313245798192675,0.11460305897743531,0.007013243298713723,0.2271517393404023,0.08345079951578445,0.006167471764111039
0.5832737669764116,0.2430183522628397,0.12073754061747757,0.007437236447116785,0.23868677591705809,0.08814943773172067,0.006541486793474825
0.6004288777698356,0.25478279926918657,0.1269526496621246,0.007872987730879811,0.25029782721621946,0.09293792750564343,0.00692601300121992
0.6175839885632595,0.2665982244644825,0.1332407822754236,0.008320419539490333,0.26196579480461507,0.09781223242451602,0.0073209936196143655
0.6347390993566833,0.27844498828057607,0.13959430298974,0.008779452249804792,0.2736716187035143,0.1027682555864328,0.0077263703632865005
0.6518942101501072,0.29030354741385184,0.14600555719118646,0.00925000424569899,0.2853963149665109,0.10780184384958276,0.008142083439956654
0.6690493209435311,0.3021544936621793,0.1524668835025986,0.00973199193818146,0.29712101271756297,0.11290879212270005,0.008568071561440108
0.6862044317369549,0.3139785920459094,0.1589706260379494,0.010225329785962627,0.3088269905612607,0.11808484769151464,0.009004271954918831
0.7033595425303788,0.32575681812198337,0.16550914650272405,0.010729930316472304,0.3204957122799905,0.12332571457569537,0.009450620374479399
0.7205146533238027,0.33747039440356336,0.17207483611547172,0.01124570414731839,0.33210886173560517,0.12862705791076498,0.00990705111291442
0.7376697641172265,0.34910082580119595,0.1786601273265088,0.011772560008178966,0.3436483768963661,0.13398450834946354,0.010373497013784852
0.7548248749106504,0.36062993400532883,0.1852575053105638,0.01231040476312024,0.3550964829132934,0.1393936664770396,0.010849889483740395
0.7719799857040743,0.3720398907340299,0.1918595192110257,0.012859143433332554,0.3664357241736206,0.1448501072349623,0.011336158505095131
0.7891350964974981,0.38331324977397785,0.1984587931143807,0.013418679220276461,0.37764899526279844,0.1503493843475676,0.011832232648655638
0.806290207290922,0.3944329777471809,0.20504803673439512,0.013988913529230871,0.38871957077040104,0.15588703474618174,0.012338039086798553
0.823445318084346,0.4053824835404329,0.21162005578661774,0.014569745993235121,0.3996311338793448,0.16145858298529994,0.01285350360679466
0.8406004288777698,0.4161456463392073,0.2181677620348343,0.015161074497416657,0.4103678036820333,0.16705954564544653,0.013378550624376467
0.8577555396711937,0.42670684221249444,0.2246841829921983,0.015762795203696077,0.42091416117135005,0.17268543571739245,0.013913103197546175
0.8749106504646175,0.43705096920000625,0.23116247126089515,0.01637480257586088,0.43125527385884005,0.17833176696246808,0.014457083040620914
0.8920657612580414,0.4471634708581654,0.23759591349534617,0.016996989404999642,0.4413767189769257,0.18399405824377693,0.015010410538512063
0.9092208720514653,0.4570303582263632,0.2439779389751474,0.017629246835287563,0.4512646052265738,0.18966783782319094,0.01557300476123539
0.9263759828448891,0.4666382301800765,0.25030212777513555,0.01827146439011507,0.4609055930364604,0.19534864761909068,0.016144783478648752
0.943531093638313,0.4759742921425765,0.25656221852119504,0.018923529998550383,0.47028691330434064,0.2010320474199034,0.016725663175414022
0.9606862044317369,0.48502637313210706,0.26275211572164925,0.019585330022127187,0.47939638459601747,0.20671361904858743,0.017315559066179823
0.9778413152251607,0.4937829411265566,0.2688658966653202,0.020256749281948476,0.4882224287819901,0.2123889704733156,0.01791438511098168
0.9949964260185846,0.5022331167327592,0.2748978178785883,0.0209376710860975,0.4967540850965455,0.21805373985971824,0.01852205403085611
1.0121515368120084,0.5103666851526372,0.280842321135019,0.02162797725734664,0.5049810226086967,0.22370359956016217,0.019138477323665044
1.0293066476054324,0.5181741064434066,0.286694039012377,0.02232754816115518,0.5128935510989938,0.22933426003566398,0.019763565280127206
1.0464617583988562,0.5256465240740095,0.29244779999307086,0.023036262733946544,0.5204826303407685,0.23494147370616167,0.020397227000052594
1.06361686919228,0.5327757717847809,0.29809863310530194,0.02375399851165575,0.5277398777888701,0.240521038725002,0.021039370408776643
1.080771979985704,0.5395543787620933,0.30364177210339477,0.02448063165853803,0.5346575746833261,0.2460688026736378,0.021689902273790224
1.0979270907791279,0.5459755731443425,0.3090726591869739,0.025216036996228597,0.5412286705796719,0.2515806661726718,0.022348728221561767
1.1150822015725517,0.5520332838801204,0.3143869482598278,0.025960088033044885,0.5474467863218674,0.25705258640553136,0.023015752754547862
1.1322373123659757,0.5577221409637535,0.31958050773043223,0.02671265699352115,0.5533062154777799,0.26248058055120843,0.023690879268388372
1.1493924231593995,0.56303747407755,0.3246494228572281,0.02747361484816633,0.5588019242611425,0.2678607291226544,0.024374010069282262
1.1665475339528233,0.5679753096741166,0.3295899976428294,0.02824283134343542,0.5639295499676662,0.2731891792075803,0.025065046391540335
1.1837026447462473,0.5725323665359033,0.33439875628238563,0.02902017503190497,0.5686853979566167,0.2784621476085725,0.025763888415310885
1.2008577555396711,0.576706049852778,0.33907244417233484,0.029805513302642903,0.573066437212617,0.28367592387960217,0.02647043528447427
1.218012866333095,0.5804944438618456,0.3436080284867632,0.03059871241176331,0.577070294525723,0.2888268732561724,0.0271845851247026
1.235167977126519,0.5838963030969464,0.3480026983295095,0.03139963751315642,0.580695247330925,0.2939114394765221,0.02790623506168033
1.2523230879199427,0.5869110422982711,0.35225386447105445,0.03220815268938415,0.5839402152511364,0.29892614749147245,0.028635281239481773
1.2694781987133665,0.5895387250353061,0.3563591586800661,0.03302412098273177,0.5868047503904571,0.3038676060606842,0.029371618839101596
1.2866333095067906,0.5917800510988745,0.3603164326602816,0.033847404426405776,0.5892890264270157,0.30873251023326437,0.030115142097133955
1.3037884203002144,0.5936363427203611,0.3641237566041443,0.03467786407586853,0.5913938265570153,0.3135176437108432,0.030865744324596284
1.3209435310936382,0.5951095296783039,0.36777941737532205,0.035515360040300134,0.5931205303437145,0.31821988109141913,0.03162331792589365
1.3380986418870622,0.5962021333543757,0.3712819163328785,0.03635975151417763,0.5944710995269787,0.3228361899924496,0.032387754417919315
1.355253752680486,0.5969172498024082,0.37462996681046096,0.03721089680896219,0.5954480628507236,0.32736363305184546,0.03315894444928736
1.3724088634739098,0.5972585318954856,0.37782249126442363,0.038068653384884375,0.5960544999670473,0.331799369805708,0.03393677781969325
1.3895639742673338,0.5972301706172736,0.3808586181052873,0.03893287788281869,0.5962940244771141,0.33614065844182617,0.03472114349939801
1.4067190850607576,0.5968368755646677,0.3837376782273786,0.03980342615623659,0.5961707661699003,0.3403848574281311,0.035511929648831556
1.4238741958541814,0.5960838547295143,0.386459201251882,0.04068015330322972,0.5956893525207506,0.3445294270154858,0.03630902363831136
1.4410293066476054,0.594976793627606,0.38902291149886137,0.04156291369859309,0.5948548895123292,0.34857193061436176,0.03711231206787158
1.4581844174410292,0.593521833843378,0.3914287237040968,0.042451561025959164,0.5936729418409671,0.3525100360451346,0.037921680787198736
1.475339528234453,0.5917255510587306,0.39367673849680535,0.04334594830997298,0.5921495125716326,0.3563415166619025,0.03873701491566947
1.492494639027877,0.5895949326341894,0.39576723765448824,0.04424592794849957,0.5902910223047719,0.3600642523499053,0.039558198862485884
1.5096497498213008,0.5871373548101945,0.39770067915128055,0.04515135174485367,0.5881042879180969,0.36367623039679187,0.040385116346904275
1.5268048606147246,0.5843605595956847,0.39947769201624317,0.04606207094004313,0.5855965009460345,0.3671755462381536,0.041217650418552916
1.5439599714081487,0.5812726314103226,0.40109907101807085,0.04697793624501604,0.5827752056590115,0.3705604040779039,0.04205568347783421
1.5611150822015725,0.5778819735456984,0.40256577119266806,0.04789879787290301,0.5796482769040262,0.3738291173842492,0.04289909729640708
1.5782701929949963,0.5741972845096679,0.403878902229971,0.04882450557124524,0.5762238977670718,0.37698010926215625,0.04374777303774507
1.5954253037884203,0.570227534316627,0.4050397227362904,0.049754908654199285,0.5725105371169237,0.38001191270337464,0.0446015912777658
1.612580414581844,0.5659819407849993,0.4060496343882846,0.050689856034709414,0.5685169270885977,0.3829231707152279,0.04546043202552716
1.629735525375268,0.5614699459015613,0.40691017599448054,0.051629196256639046,0.5642520405634336,0.38571263632953495,0.04632417474398606
1.646890636168692,0.5567011923104056,0.4076230174800275,0.052572777526851855,0.5597250687012705,0.3883791724931686,0.04719269837081511
1.6640457469621157,0.5516854999824207,0.40818995381007944,0.05352044774723412,0.554945398578557,0.39092175184189826,0.0480658813392728
1.6812008577555395,0.546432843119087,0.40861289886691105,0.05447205454664957,0.5499225909845052,0.39333945635929995,0.04894360159912289
1.6983559685489633,0.5409533273422362,0.40889387929550763,0.05542744531281759,0.544666358425541,0.3956314769226516,0.04982573663759833
1.7155110793423873,0.5352571672191361,0.4090350283320146,0.05638646722410718,0.5391865433863554,0.3977971127378533,0.05071216350040545
1.7326661901358111,0.5293546641699146,0.40903857962900425,0.05734896728123705,0.5334930968938137,0.3998357706655407,0.05160275881276375
1.749821300929235,0.5232561848018941,0.4089068610911048,0.05831479233887451,0.5275960574278478,0.4017469644406741,0.05249739880047726
1.766976411722659,0.5169721397129002,0.40864228873406677,0.05928378913712396,0.5215055302212639,0.4035303137879978,0.05339595931103244
1.7841315225160828,0.5105129628030524,0.40824736057986477,0.06025580433289715,0.5152316669881191,0.4051855434358741,0.05429831583471867
1.8012866333095066,0.5038890911319297,0.4077246505999291,0.06123068453115733,0.5087846461180107,0.40671248203109656,0.055204343525766676
1.8184417441029306,0.49711094535536143,0.4070768027180908,0.0622082763160287,0.5021746533712474,0.40811106095738464,0.05611391722350058
1.8355968548963544,0.4901889107734239,0.4063065248842698,0.06318842628176363,0.49541186310747337,0.4093813130603523,0.05702691147349881
1.8527519656897782,0.48313331901852835,0.4054165832294072,0.06417098106355933,0.4885064200778837,0.4105233712818316,0.057943200548760135
1.8699070764832022,0.47595443040980395,0.40440979631156526,0.0651557873682172,0.48146842180872357,0.41153746720650825,0.05886265847086963
1.887062187276626,0.46866241699727806,0.4032890294625543,0.06614269200463575,0.4743079016013062,0.4124239295239052,0.059785159031160814
1.9042172980700498,0.4612673463166801,0.40205718924386724,0.0671315419141311,0.4670348121713236,0.4131831824088165,0.060710575811869234
1.9213724088634738,0.4537791658730419,0.40071721802011623,0.06812218420057606,0.45965900994777625,0.41381574382335784,0.06163878220727318
1.9385275196568976,0.4462076883686321,0.3992720886575807,0.06911446616035213,0.452190240049411,0.4143222237438585,0.06256965144481735
1.9556826304503214,0.43856257768817497,0.39772479935488797,0.07010823531210586,0.44463812195414065,0.41470332231586954,0.06350305660621491
1.9728377412437454,0.43085333565175604,0.3960783686122566,0.07110333942630295,0.43701213587454085,0.41495982794061254,0.0644388706485238
1.9899928520371692,0.4230892895433252,0.39433583034515307,0.07209962655457319,0.42932160985016926,0.41509261529622943,0.06537696642519272
2.0071479628305933,0.415279580420267,0.3925002291476257,0.0730969450588395,0.4215757075651506,0.4151026432972335,0.06631721670707301
2.024303073624017,0.40743315220714516,0.39057461571000857,0.07409514364022358,0.4137834168972228,0.4149909529955865,0.06725949420339154
2.041458184417441,0.3995587415744219,0.38856204239511855,0.07509407136772257,0.40595353920223437,0.41475866542685513,0.06820367158268092
2.058613295210865,0.3916648686007404,0.3864655589765136,0.07609357770664928,0.3980946793359575,0.41440697940491306,0.0691496214936624
2.0757684060042885,0.38375982821520177,0.38428820854182655,0.07709351254683021,0.3902152364130052,0.41393716926867374,0.07009721658607734
2.0929235167977125,0.375851682414031,0.382033023563661,0.07809372623055465,0.3823233953006403,0.4133505825843396,0.07104632953146363
2.1100786275911365,0.36794825324404934,0.3797030221400086,0.07909406958026922,0.37442711884335217,0.4126486378066614,0.07199683304387164
2.12723373838456,0.3600571165434997,0.3773012044056369,0.08009439392601095,0.3665341408122148,0.411832821902694,0.07294859990051715
2.144388849177984,0.3521855964290007,0.37483054911541175,0.08109455113257416,0.3586519595712918,0.4109046879415296,0.07390150296236596
2.161543959971408,0.34434076051572654,0.3722940104000363,0.08209439362640442,0.3507878324516717,0.4098658526534734,0.07485541519464639
2.1786990707648317,0.3365294158563296,0.36969451469422854,0.08309377442221462,0.34294877082212044,0.4087179939621093,0.07581020968728629
2.1958541815582557,0.32875810558265767,0.36703495783692874,0.08409254714931638,0.33514153584384765,0.4074628484926829,0.07676575967526943
2.2130092923516798,0.32103310623294495,0.36431820234269285,0.08509056607766362,0.32737263489547075,0.40610220906019523,0.07772193855890822
2.2301644031451033,0.31336042574588646,0.3615470748430372,0.08608768614360097,0.3196483186529397,0.4046379221405753,0.07867861992402836
2.2473195139385274,0.30574580210185615,0.358724363696111,0.08708376297531253,0.3119745788079734,0.40307188532825544,0.07963567756206161
2.2644746247319514,0.2981947025904691,0.35585281676271857,0.08807865291796692,0.3043571464074237,0.40140604478344116,0.0805929854900426
2.281629735525375,0.29071232368273414,0.3529351393463585,0.08907221305855197,0.2968014907949504,0.39964239267231194,0.0815504179705064
2.298784846318799,0.2833035914852071,0.34997399229464776,0.09006430125039636,0.28931281913545537,0.3977829646033488,0.0825078495312822
2.315939957112223,0.2759731627528029,0.3469719902591809,0.09105477613737148,0.281896076501881,0.39582983706292735,0.08346515498517998
2.3330950679056466,0.26872542643628505,0.34393170011060886,0.09204349717777142,0.27455594650321724,0.39378512485325656,0.08442220944956606
2.3502501786990706,0.26156450573990847,0.34085563950546016,0.09303032466786473,0.2672968524319155,0.39165097853569036,0.08537888836582423
2.3674052894924946,0.2544942606642457,0.3377462756009973,0.09401511976511447,0.26012295890833154,0.3894295818823651,0.08633506751869804
2.384560400285918,0.24751829100887182,0.3346060239141826,0.09499774451106315,0.25303817399933926,0.38712314933906006,0.08729062305551151
2.4017155110793422,0.24063993980932924,0.3314372473206381,0.09597806185387772,0.2460461517878724,0.3847339235020994,0.08824543150526405
2.4188706218727662,0.2338622971826211,0.3282422551893109,0.09695593567055166,0.2391502953698399,0.3822641726120482,0.08919936979759616
2.43602573266619,0.2271882045553961,0.32502330264840396,0.09793123078875941,0.23235376025463328,0.3797161880668743,0.09015231528162261
2.453180843459614,0.22062025924899162,0.32178258997799875,0.09890381300836096,0.22565945814530924,0.3770922819571736,0.09110414574462952
